time(s),volume(cm3)
0,1
0.000199999999999999,0.997382949573566
0.000400000000000001,0.995077845154907
0.0006,0.993086968226648
0.000800000000000002,0.991400664524912
0.001,0.990000261646733
0.0012,0.988869500703298
0.0014,0.987995488543237
0.0016,0.987372421223159
0.0018,0.987020311653874
0.002,0.987111119139024
0.0022,0.987752119963319
0.0024,0.988301212119271
0.0026,0.988586988295858
0.0028,0.988796331296335
0.003,0.988931130685825
0.0032,0.988972252819148
0.0034,0.98890164799162
0.0036,0.988777941952938
0.0038,0.988597880471884
0.004,0.988272677178125
0.0042,0.987833458537383
0.0044,0.987603670815708
0.0046,0.987922647915999
0.0048,0.988682684577373
0.005,0.989639467276893
0.0052,0.990590313052075
0.0054,0.991347466786936
0.0056,0.991696280045643
0.0058,0.991523856291769
0.006,0.991192929492928
0.0062,0.99112243974824
0.0064,0.991286030184966
0.0066,0.991541392123368
0.0068,0.991644229897081
0.007,0.991392336739184
0.0072,0.991015861578137
0.0074,0.99055944543735
0.0076,0.989202881574449
0.0078,0.986566410226016
0.008,0.982836783759232
0.0082,0.978371063909441
0.0084,0.973329569496472
0.0086,0.967934091925982
0.0088,0.962564661231607
0.009,0.957582516700613
0.0092,0.952982153994699
0.0094,0.948702059948785
0.0096,0.944803684177479
0.0098,0.941035516998335
0.01,0.936866670735099
0.0102,0.932077362958763
0.0104,0.926392246211991
0.0106,0.919636971329395
0.0108,0.911944392918566
0.011,0.903554311442796
0.0112,0.89446037745577
0.0114,0.885251270459543
0.0116,0.876737853916589
0.0118,0.868984241244046
0.012,0.86175958439884
0.0122,0.85482191784713
0.0124,0.848112391053616
0.0126,0.841513159157245
0.0128,0.834797329844292
0.013,0.827625454581992
0.0132,0.819801246476154
0.0134,0.811109691591565
0.0136,0.801556725634106
0.0138,0.791358571640208
0.014,0.780942584080935
0.0142,0.770707512877215
0.0144,0.760707076983125
0.0146,0.750895408924327
0.0148,0.741400853285405
0.015,0.73237625034864
0.0152,0.723938251438928
0.0154,0.715911939728248
0.0156,0.708057874813706
0.0158,0.70022055273857
0.016,0.692186507474887
0.0162,0.683963181018094
0.0164,0.6757577019608
0.0166,0.667528988716181
0.0168,0.659216442744691
0.017,0.650821368803899
0.0172,0.642249057998435
0.0174,0.633399033330252
0.0176,0.624330857570655
0.0178,0.615269111154505
0.018,0.606249549741525
0.0182,0.597265694902712
0.0184,0.588391937747525
0.0186,0.579632820239344
0.0188,0.571031676457279
0.019,0.562649007696512
0.0192,0.554455291902789
0.0194,0.546339929008687
0.0196,0.538166177760042
0.0198,0.529896165394011
0.02,0.521620666767665
0.0202,0.513350099841266
0.0204,0.505107826097061
0.0206,0.496948462156567
0.0208,0.488860994302751
0.021,0.480765946751087
0.0212,0.472627213331512
0.0214,0.464454416392896
0.0216,0.456242164566478
0.0218,0.448016778277358
0.022,0.439745830329367
0.0222,0.431469479568912
0.0224,0.423224980301614
0.0226,0.415052218757989
0.0228,0.406946359745709
0.023,0.398887373236654
0.0232,0.390896707456787
0.0234,0.382995389827033
0.0236,0.375152610981731
0.0238,0.367367220728475
0.024,0.359645969224658
0.0242,0.35197297359874
0.0244,0.344353123139711
0.0246,0.336780878751242
0.0248,0.329243071370295
0.025,0.321743080734964
0.0252,0.314260727515623
0.0254,0.306777841749152
0.0256,0.299263285371847
0.0258,0.291733670575405
0.026,0.284220841679576
0.0262,0.276737216831627
0.0264,0.26929575479139
0.0266,0.261901533407844
0.0268,0.254539049307724
0.027,0.247193312335804
0.0272,0.239865166361394
0.0274,0.232578811603799
0.0276,0.225351068427726
0.0278,0.218156874768235
0.028,0.2109641327467
0.0282,0.203757534429015
0.0284,0.196545387963438
0.0286,0.189342270923971
0.0288,0.182142098127223
0.029,0.174928545920886
0.0292,0.167714902645484
0.0294,0.160545191698549
0.0296,0.153505355742395
0.0298,0.146724103073584
0.03,0.140336591737915
0.0302,0.134441824892232
0.0304,0.129099566537063
0.0306,0.124337121616565
0.0308,0.120150711887047
0.031,0.116508486110973
0.0312,0.113364953740011
0.0314,0.110660748192502
0.0316,0.108324490956783
0.0318,0.106282111973279
0.032,0.104469291543458
0.0322,0.102835762416364
0.0324,0.101344075763163
0.0326,0.0999683557759438
0.0328,0.0986941547385832
0.033,0.0975072446068045
0.0332,0.0963925933115004
0.0334,0.0953425224289567
0.0336,0.0943516455436883
0.0338,0.0934110913171353
0.034,0.0925159315735496
0.0342,0.0916690679787839
0.0344,0.0908723271026229
0.0346,0.0901229744952986
0.0348,0.0894206139442613
0.035,0.0887640994729771
0.0352,0.0881492870699893
0.0354,0.0875726260825444
0.0356,0.0870311204365361
0.0358,0.0865225202021089
0.036,0.0860465934995755
0.0362,0.0856040921527969
0.0364,0.0851952583013984
0.0366,0.0848182683906206
0.0368,0.0844717271124727
0.037,0.0841573495897666
0.0372,0.0838774751988802
0.0374,0.08363027293522
0.0376,0.0834103683006295
0.0378,0.0832129920646303
0.038,0.0830346689545647
0.0382,0.0828721282696098
0.0384,0.0827246184929156
0.0386,0.0825910664067472
0.0388,0.0824699639507306
0.039,0.0823612752385506
0.0392,0.0822636393321842
0.0394,0.0821732596631482
0.0396,0.0820874920519767
0.0398,0.0820060796958819
0.04,0.0819291944259498
0.0402,0.081856046881819
0.0404,0.0817844768759898
0.0406,0.0817137392415191
0.0408,0.081645496846005
0.041,0.0815821230494653
0.0412,0.081523425052389
0.0414,0.0814680190104128
0.0416,0.0814170334440004
0.0418,0.0813715831661523
0.042,0.0813312814979498
0.0422,0.0812954957265862
0.0424,0.0812639882524367
0.0426,0.0812374214362574
0.0428,0.0812155318014837
0.043,0.08119707185951
0.0432,0.081180597594905
0.0434,0.0811659267824903
0.0436,0.0811542567163143
0.0438,0.081146947213469
0.044,0.0811428533839164
0.0442,0.0811408630160111
0.04426,0.0811407314279184
0.04626,0.0813137027254272
0.04826,0.0816171687099313
0.05026,0.0820392710896477
0.05226,0.0824986888106529
0.05426,0.0830040710940226
0.05626,0.0835590250345697
0.05826,0.0840941162181523
0.06026,0.0845832703090814
0.06226,0.0850843898720651
0.06426,0.0857532201992522
0.06626,0.086192504687853
0.06826,0.0866389372610385
0.07026,0.0870601741197154
0.07226,0.0874650389767651
0.07426,0.0878436189363999
0.07626,0.0882549660283411
0.07826,0.0886113050318621
0.08026,0.088964618572665
0.08226,0.0893606037421471
0.08426,0.0896923071569951
0.08626,0.0900169127284897
0.08826,0.0903625387201888
0.09026,0.0906956804248836
0.09226,0.0909996294959889
0.09426,0.0913094134376002
0.09626,0.0916089852888417
0.09826,0.0918796810532036
0.10026,0.0921692933289917
0.10226,0.0924466326137636
0.10426,0.0927232791848792
0.10626,0.093012692830069
0.10826,0.0932316011035597
0.11026,0.0935077526377047
0.11226,0.093751508233299
0.11426,0.0940234824276054
0.11626,0.0942732800600163
0.11826,0.0945382717339448
0.12026,0.094732119089889
0.12226,0.0950116621110931
0.12426,0.0952569615618498
0.12626,0.0954657448910608
0.12826,0.0957113505482631
0.13026,0.0959372729908238
0.13226,0.0961635166872636
0.13426,0.0963681363488096
0.13626,0.096573291546865
0.13826,0.0968411697030207
0.14026,0.0970814247063326
0.14226,0.0972627716086671
0.14426,0.0975113455945646
0.14626,0.0977073990766338
0.14826,0.097881165636713
0.15026,0.0980632944735802
0.15226,0.0982441450782921
0.15426,0.0984346990981607
0.15626,0.098648629823027
0.15826,0.0988439179760907
0.16026,0.0990364961181596
0.16226,0.0992281492300411
0.16426,0.0994437226429552
0.16626,0.0995803165087355
0.16826,0.0997676701707066
0.17026,0.099962489813619
0.17226,0.100134126496166
0.17426,0.100325315173524
0.17626,0.100466574838145
0.17826,0.100678078969722
0.18026,0.100877901429723
0.18226,0.101073723503477
0.18426,0.101241739563767
0.18626,0.101383518579736
0.18826,0.101594889310785
0.19026,0.101724488829282
0.19226,0.101888192900585
0.19426,0.102089813433091
0.19626,0.102298138062973
0.19826,0.102460651279438
0.20026,0.10262514877489
0.20226,0.102816750027453
0.20426,0.103009475671089
0.20626,0.10315268331858
0.20826,0.103312341431343
0.21026,0.103495675063191
0.21226,0.103574518053722
0.21426,0.103786561894158
0.21626,0.104004161089619
0.21826,0.10417471359091
0.22026,0.104307298553532
0.22226,0.104495757442668
0.22426,0.104619985207454
0.22626,0.10480224988521
0.22826,0.104979310756193
0.23026,0.105071649648655
0.23226,0.105294539305697
0.23426,0.105405507220843
0.23626,0.105573260517693
0.23826,0.105711479981508
0.24026,0.105833537498577
0.24226,0.106014051071731
0.24426,0.106106307993828
0.24626,0.106290704914052
0.24826,0.106375954018488
0.25026,0.10660940906383
0.25226,0.106740938712978
0.25426,0.106888801526069
0.25626,0.107044905751471
0.25826,0.107178638322877
0.26026,0.107363472522454
0.26226,0.10744222864361
0.26426,0.107675395165932
0.26626,0.107723843623946
0.26826,0.107928064936471
0.27026,0.108022646160907
0.27226,0.108202262146925
0.27426,0.108306234883596
0.27626,0.108507831264502
0.27826,0.108648530379118
0.28026,0.108791812118054
0.28226,0.108953621705887
0.28426,0.109081684567335
0.28626,0.109196521156018
0.28826,0.109344461081495
0.29026,0.109400481533997
0.29226,0.109641535168012
0.29426,0.109697427942257
0.29626,0.10990027054977
0.29826,0.109956656352423
0.30026,0.11012351838734
0.30226,0.110268645331096
0.30426,0.1104173673929
0.30626,0.110558198292992
0.30826,0.110781225842298
0.31026,0.110847257730526
0.31226,0.111054058252796
0.31426,0.111083892375956
0.31626,0.111330237192587
0.31826,0.111369002731926
0.32026,0.111541726205626
0.32226,0.11166269457106
0.32426,0.111793183504954
0.32626,0.111950735598803
0.32826,0.112042831648152
0.33026,0.112211381574574
0.33226,0.112264692941827
0.33426,0.112488536055513
0.33626,0.11254363695431
0.33826,0.112708338241302
0.34026,0.112829851129153
0.34226,0.112971740032135
0.34426,0.113152000565163
0.34626,0.113233394363657
0.34826,0.113420551967461
0.35026,0.113491626134728
0.35226,0.113659168691806
0.35426,0.113770673511136
0.35626,0.113853660766244
0.35826,0.114070151903639
0.36026,0.114163118663088
0.36226,0.114287979966474
0.36426,0.114425461052918
0.36626,0.114448421473077
0.36826,0.114662308601509
0.37026,0.11472570394384
0.37226,0.114821172532262
0.37426,0.114993265103093
0.37626,0.115039127057012
0.37826,0.115199836579381
0.38026,0.115347939531809
0.38226,0.115404184011591
0.38426,0.115575883044929
0.38626,0.11566590818371
0.38826,0.115728948483138
0.39026,0.115938969420741
0.39226,0.116023368241619
0.39426,0.11613189446535
0.39626,0.116275282671482
0.39826,0.116330525972876
