time(s),volume(cm3)
0,1
0.0002,1.00067005462227
0.0004,1.00100197481788
0.0006,1.00099586850432
0.0008,1.00065254222547
0.001,0.999970315333719
0.0012,0.998939820339821
0.0014,0.997512213120486
0.0016,0.995625968825345
0.0018,0.993227177101988
0.002,0.990274662784561
0.0022,0.987355676745338
0.0024,0.983985518535052
0.0026,0.979949438797688
0.0028,0.974270737957529
0.003,0.966694478481922
0.0032,0.958726608602195
0.0034,0.951865247600065
0.0036,0.945941887388748
0.0038,0.9399244699506
0.004,0.933231000684638
0.0042,0.925143912367093
0.0044,0.916092008211016
0.0046,0.906673858016603
0.0048,0.897152938084976
0.005,0.88767660770672
0.0052,0.878551307665477
0.0054,0.869993291131758
0.0056,0.86198309098678
0.0058,0.854025897022335
0.006,0.8463642597417
0.0062,0.839814012359216
0.0064,0.833689635827642
0.0066,0.827562484462027
0.0068,0.821355173492191
0.007,0.814786160053573
0.0072,0.80773611443953
0.0074,0.800073718761061
0.0076,0.792395222168181
0.0078,0.78475728656544
0.008,0.776780292131503
0.0082,0.767893411339861
0.0084,0.75751645380347
0.0086,0.746134292785661
0.0088,0.734837163552476
0.009,0.724260303261791
0.0092,0.714394323058171
0.0094,0.70470304492594
0.0096,0.694753255391573
0.0098,0.684520883210909
0.01,0.674175600842588
0.0102,0.664177013803208
0.0104,0.65528511325784
0.0106,0.647538604774336
0.0108,0.640414040411057
0.011,0.633639147872743
0.0112,0.627029036948307
0.0114,0.620015555226476
0.0116,0.612239399952757
0.0118,0.603604283428719
0.012,0.594100882636964
0.0122,0.584040991634727
0.0124,0.573663296498581
0.0126,0.563265581512134
0.0128,0.553317271295771
0.013,0.544146707869782
0.0132,0.535783613730323
0.0134,0.52797122868091
0.0136,0.520477742965004
0.0138,0.513049299335283
0.014,0.505534993319384
0.0142,0.498000437108516
0.0144,0.490386595928358
0.0146,0.482614800136387
0.0148,0.474703397717065
0.015,0.466628567348595
0.0152,0.458334464749515
0.0154,0.449916617846122
0.0156,0.441459774577307
0.0158,0.433003720258278
0.016,0.424511473091181
0.0162,0.415926499427472
0.0164,0.407350425396285
0.0166,0.398892609827889
0.0168,0.390594906834821
0.017,0.382389630507645
0.0172,0.374229331132794
0.0174,0.366150799748859
0.0176,0.358183014416684
0.0178,0.350393772831148
0.018,0.3428323693897
0.0182,0.335347516071019
0.0184,0.327810823760701
0.0186,0.320227808913074
0.0188,0.312591437756615
0.019,0.304920424422388
0.0192,0.297241878002359
0.0194,0.289567600209556
0.0196,0.281915594627793
0.0198,0.274332230913579
0.02,0.266833800718273
0.0202,0.259432754948718
0.0204,0.252093079195161
0.0206,0.244744338739779
0.0208,0.237325228081092
0.021,0.22984264901748
0.0212,0.222328074984599
0.0214,0.214800054127821
0.0216,0.20725878198566
0.0218,0.199689830714312
0.022,0.192063416368437
0.0222,0.184369764388047
0.0224,0.176626720315138
0.0226,0.168863389922685
0.0228,0.161136710180057
0.023,0.153569350891147
0.0232,0.146317467359908
0.0234,0.13952664709557
0.0236,0.133310680541354
0.0238,0.1277442258766
0.024,0.12285152323728
0.0242,0.11859522038096
0.0244,0.114911190816936
0.0246,0.111727007363593
0.0248,0.108961417619392
0.025,0.106526629938107
0.0252,0.104341913678316
0.0254,0.102340082488153
0.0256,0.100468645190477
0.0258,0.098698524388985
0.026,0.097022270897706
0.0262,0.095437921672558
0.0264,0.093940251876668
0.0266,0.092526436699573
0.0268,0.091190462017848
0.027,0.089919828544707
0.0272,0.088708164684815
0.0274,0.087564492431771
0.0276,0.08650612423547
0.0278,0.085544912815185
0.028,0.084685297810337
0.0282,0.083930705453215
0.0284,0.083283211378121
0.0286,0.082746659017794
0.0288,0.082321077370778
0.029,0.081997689115736
0.0292,0.08176033124203
0.0294,0.081592691967652
0.0296,0.081479892961287
0.0298,0.081406318375497
0.03,0.081360160207917
0.0302,0.081336559721109
0.030305,0.081333251890872
0.032305,0.081963741034402
0.034305,0.082940180202778
0.036305,0.084242036347723
0.038305,0.085802300667339
0.040305,0.086797991909444
0.042305,0.087920798825609
0.044305,0.088857084719666
0.046305,0.089746400357691
0.048305,0.090503901635523
0.050305,0.09117721551605
0.052305,0.091995768669293
0.054305,0.092711183981269
0.056305,0.093370424119326
0.058305,0.093996762813424
0.060305,0.094567120435949
0.062305,0.095151926394454
0.064305,0.095680445838303
0.066305,0.096244547890476
0.068305,0.096808904975051
0.070305,0.097409676025518
0.072305,0.097878753783307
0.074305,0.098431582021629
0.076305,0.098787962787407
0.078305,0.099239186828999
0.080305,0.099713143494441
0.082305,0.100097446643728
0.084305,0.10054618483669
0.086305,0.101029472870837
0.088305,0.101375906183354
0.090305,0.101839489176933
0.092305,0.102337287611397
0.094305,0.102655005703887
0.096305,0.103069340020649
0.098305,0.103442955793375
0.100305,0.103849234343384
0.102305,0.104004417486409
0.104305,0.104535109784498
0.106305,0.104754100425647
0.108305,0.105110192309352
0.110305,0.105443305416018
0.112305,0.105938509245316
0.114305,0.106112340399586
0.116305,0.106544493207234
0.118305,0.106730457659434
0.120305,0.10714238799416
0.122305,0.10744141335644
0.124305,0.107607618889138
0.126305,0.108107821261077
0.128305,0.108273755862738
0.130305,0.108672940766956
0.132305,0.108947664875548
0.134305,0.109144875632276
0.136305,0.109533820590837
0.138305,0.109756302191826
0.140305,0.109863425368767
0.142305,0.110255285796984
0.144305,0.110520371789211
0.146305,0.110607625941341
0.148305,0.110804319610815
0.150305,0.111210037854115
0.152305,0.111355081563546
0.154305,0.111432338783304
0.156305,0.111791274651233
0.158305,0.112145984030441
0.160305,0.112209329437566
0.162305,0.112382203801078
0.164305,0.11260225423173
0.166305,0.113001414398739
0.168305,0.113069423909687
0.170305,0.113228295681591
0.172305,0.113822274790772
0.174305,0.11386568696555
0.176305,0.113951461334359
0.178305,0.114264541697085
0.180305,0.114561430132524
0.182305,0.114772813254891
0.184305,0.114768387642191
0.186305,0.1151612511483
0.188305,0.115404569036728
0.190305,0.115621660959007
0.192305,0.115703631916994
0.194305,0.115843588141237
0.196305,0.11620407272804
0.198305,0.116307032873186
0.200305,0.116518716800072
0.202305,0.116593844820037
0.204305,0.116931400640622
0.206305,0.1170934553379
0.208305,0.117389184518822
0.210305,0.117438316721253
0.212305,0.117477613858911
0.214305,0.117800592342243
0.216305,0.117840416823397
0.218305,0.118256123710132
0.220305,0.118381004541474
0.222305,0.118399971273766
0.224305,0.118584528470153
0.226305,0.118801732700776
0.228305,0.119222398860928
0.230305,0.119324586546317
0.232305,0.119359137448071
0.234305,0.119564577598183
0.236305,0.119525772577954
0.238305,0.119909282445436
0.240305,0.120196885929863
0.242305,0.120274872849661
0.244305,0.120439085280499
0.246305,0.120545721254896
0.248305,0.120750585687741
0.250305,0.121242042877294
0.252305,0.121245348305104
0.254305,0.121277825970256
0.256305,0.121393084669343
0.258305,0.121444972494432
0.260305,0.121740708447029
0.262305,0.121900013144227
0.264305,0.122154179018429
0.266305,0.122257372103574
0.268305,0.122318230507894
0.270305,0.122585161873706
0.272305,0.122684196332543
0.274305,0.122915561791261
0.276305,0.123039554560318
0.278305,0.123200175092579
0.280305,0.123364957343023
0.282305,0.123374960869505
0.284305,0.123618903921994
0.286305,0.123686910554251
0.288305,0.123953697031343
0.290305,0.12388605705011
0.292305,0.124296330911498
0.294305,0.124305950173581
0.296305,0.124388417886622
0.298305,0.12443802163721
0.300305,0.124580062259171
0.302305,0.124705608705923
0.304305,0.124760674162437
0.306305,0.12484960463244
0.308305,0.125107499593986
0.310305,0.125370950118826
0.312305,0.125387702159913
0.314305,0.125459067165912
0.316305,0.125488490960667
0.318305,0.125500473679718
0.320305,0.125604543106332
0.322305,0.125897496853439
0.324305,0.126118859477499
0.326305,0.126307545658448
0.328305,0.126409438877986
0.330305,0.126436852189755
0.332305,0.126567214598327
0.334305,0.126562784093155
0.336305,0.126771289070651
0.338305,0.126830496665423
0.340305,0.127079670499141
0.342305,0.12734060536518
0.344305,0.127447649817028
0.346305,0.127561155386211
0.348305,0.127617179268891
0.350305,0.127659712814703
0.352305,0.127756886435293
0.354305,0.12771404331454
0.356305,0.128007201549822
0.358305,0.128106192637089
0.360305,0.128136697125458
0.362305,0.128489970462975
0.364305,0.128669929873248
0.366305,0.12866406415226
0.368305,0.128821953040329
0.370305,0.128798152860214
0.372305,0.12885597854777
0.374305,0.128887567622149
0.376305,0.129009994150882
0.378305,0.12904247135907
0.380305,0.129620015013155
0.382305,0.129466955080616
0.384305,0.129789357000204
0.386305,0.129911047031509
0.388305,0.129965347289994
0.390305,0.129992215155876
0.392305,0.130059472423694
0.394305,0.130095054523138
0.396305,0.130085658276025
0.398305,0.130289737337177
