time(s),volume(cm3)
0,1
0.000199999999999999,1.00022509351374
0.000400000000000001,1.00055655118513
0.0006,1.00093835034887
0.000800000000000002,1.00132654078779
0.001,1.0016872298658
0.0012,1.00201599818799
0.0014,1.00235877604979
0.0016,1.00283596559506
0.0018,1.00361063824245
0.002,1.00455875882596
0.0022,1.00565960304478
0.0024,1.00515917730664
0.0026,1.00179193167008
0.0028,0.996096265016513
0.003,0.989222399935601
0.0032,0.982108329512078
0.0034,0.97521402146276
0.0036,0.968477788889295
0.0038,0.961722207412904
0.004,0.9550559107358
0.0042,0.949702226819564
0.0044,0.946612518057909
0.0046,0.945254454651182
0.0048,0.944395853926195
0.005,0.943249670005395
0.0052,0.940947166075312
0.0054,0.937652397806766
0.0056,0.933686770187065
0.0058,0.928882621666662
0.006,0.923170350868603
0.0062,0.916468091585799
0.0064,0.908595830118679
0.0066,0.899854109332407
0.0068,0.890284943316935
0.007,0.880116600261483
0.0072,0.870111588912567
0.0074,0.860534741626053
0.0076,0.851163906632212
0.0078,0.841636479854173
0.008,0.831810393742105
0.0082,0.821935729851732
0.0084,0.812550708331572
0.0086,0.804123678466427
0.0088,0.796373579065764
0.009,0.789041215449034
0.0092,0.782090138746253
0.0094,0.775182797131165
0.0096,0.768164203378438
0.0098,0.760966467745582
0.01,0.753361547767341
0.0102,0.744977882739998
0.0104,0.73542558380887
0.0106,0.724909202436861
0.0108,0.71418781242487
0.011,0.703692904492835
0.0112,0.693674817836248
0.0114,0.684009234366256
0.0116,0.674243600944909
0.0118,0.66396587847147
0.012,0.65346260032419
0.0122,0.643264312047866
0.0124,0.633549918155486
0.0126,0.624293695201185
0.0128,0.615536440452495
0.013,0.60721603406573
0.0132,0.599333491176786
0.0134,0.591981118299628
0.0136,0.585064574754353
0.0138,0.578145183970499
0.014,0.570846564811531
0.0142,0.562942659768405
0.0144,0.554439711557398
0.0146,0.545462702282642
0.0148,0.536240402271054
0.015,0.527048007898524
0.0152,0.518014498066176
0.0154,0.509186282333652
0.0156,0.500610016508305
0.0158,0.49226024787644
0.016,0.484065721700229
0.0162,0.475942278683662
0.0164,0.467797939767277
0.0166,0.45962058580324
0.0168,0.451417852879763
0.017,0.443170530136042
0.0172,0.43486436735591
0.0174,0.426437549596052
0.0176,0.417981162955541
0.0178,0.40953788064394
0.018,0.401149625596404
0.0182,0.392888187888236
0.0184,0.384710130920227
0.0186,0.376602296316227
0.0188,0.368636001996615
0.019,0.360876599028139
0.0192,0.353303488325354
0.0194,0.345823070297958
0.0196,0.338304427855246
0.0198,0.330725465189946
0.02,0.323151720606638
0.0202,0.315642619592696
0.0204,0.308207757111849
0.0206,0.300802240110253
0.0208,0.293383068546304
0.021,0.285920809332177
0.0212,0.278408193122281
0.0214,0.270871200958324
0.0216,0.26330296006257
0.0218,0.255678589816393
0.022,0.24798818689385
0.0222,0.240250572481573
0.0224,0.232542146196944
0.0226,0.224926856120316
0.0228,0.217428503708292
0.023,0.210020437078999
0.0232,0.202645754258717
0.0234,0.195257355376205
0.0236,0.187816855013465
0.0238,0.180295494959903
0.024,0.172714627404654
0.0242,0.165128250555433
0.0244,0.157642801581123
0.0246,0.150421066009335
0.0248,0.14362573793957
0.025,0.137385737358576
0.0252,0.131770926883333
0.0254,0.126791041172693
0.0256,0.122417609020773
0.0258,0.118601469265439
0.026,0.115290676286028
0.0262,0.112421251559995
0.0264,0.109916963451971
0.0266,0.107699954718898
0.0268,0.105702394463139
0.027,0.103878284592935
0.0272,0.102196918327071
0.0274,0.100637556784161
0.0276,0.0991858577704439
0.0278,0.097821545968774
0.028,0.0965237943146238
0.0282,0.0952851070285267
0.0284,0.0941056153810529
0.0286,0.0929879191059126
0.0288,0.0919393910853071
0.029,0.0909686575293577
0.0292,0.090081372838268
0.0294,0.0892763147953505
0.0296,0.0885527275250267
0.0298,0.0879123063654975
0.03,0.0873544929102794
0.0302,0.0868761990456645
0.0304,0.0864727883203067
0.0306,0.0861387716915998
0.0308,0.0858692850470984
0.031,0.0856573161830386
0.0312,0.0854957298146326
0.0314,0.0853764208666002
0.0316,0.0852933090340173
0.0318,0.0852422282480622
0.032,0.0852198042914558
0.032125,0.0852166120966245
0.034125,0.0856702878316883
0.036125,0.0865149890381418
0.038125,0.0874320091128437
0.040125,0.0884801703620518
0.042125,0.0894200853200708
0.044125,0.0902524967671018
0.046125,0.0911087826954865
0.048125,0.0918519432601209
0.050125,0.0925627247064965
0.052125,0.0932375126783476
0.054125,0.0939471063298453
0.056125,0.0945203983115523
0.058125,0.0951096432940542
0.060125,0.0956382128735458
0.062125,0.096169952216937
0.064125,0.0967134006123634
0.066125,0.0971797799847579
0.068125,0.0976217802257397
0.070125,0.0981052481036844
0.072125,0.0984961836059495
0.074125,0.0988865452812593
0.076125,0.0992263780987224
0.078125,0.099536690484524
0.080125,0.0999436922264703
0.082125,0.100335517828886
0.084125,0.100661657633558
0.086125,0.101050495624177
0.088125,0.101294757946861
0.090125,0.101694748774003
0.092125,0.101975784405696
0.094125,0.102247881259537
0.096125,0.102604408831398
0.098125,0.10286626368275
0.100125,0.103116054144515
0.102125,0.103453664008209
0.104125,0.103636464775271
0.106125,0.104065099191895
0.108125,0.104184317368618
0.110125,0.104559031946051
0.112125,0.104674321837589
0.114125,0.105057018466107
0.116125,0.105269062676436
0.118125,0.10551694461508
0.120125,0.105698805371564
0.122125,0.106020804920458
0.124125,0.106226995018902
0.126125,0.106462209497348
0.128125,0.106649801669259
0.130125,0.106989404005516
0.132125,0.107153603327441
0.134125,0.107425610743245
0.136125,0.107716135211188
0.138125,0.108183436378758
0.140125,0.108572916182132
0.142125,0.108837016287017
0.144125,0.109082231671238
0.146125,0.109233085497527
0.148125,0.1095647946377
0.150125,0.109708209347377
0.152125,0.109817147144599
0.154125,0.110121521851227
0.156125,0.110287778235497
0.158125,0.110397775609816
0.160125,0.110625752560988
0.162125,0.110835919358172
0.164125,0.1109183602254
0.166125,0.111195431848859
0.168125,0.111434396253783
0.170125,0.111646969965697
0.172125,0.111916979115435
0.174125,0.112035930055487
0.176125,0.112137683728531
0.178125,0.112522976837551
0.180125,0.112589164556874
0.182125,0.112877923256861
0.184125,0.112995469429026
0.186125,0.113176163034132
0.188125,0.113411764150318
0.190125,0.113591237573799
0.192125,0.113710173844284
0.194125,0.113874239517763
0.196125,0.114035731689174
0.198125,0.114270722306642
0.200125,0.114350548610102
0.202125,0.11447083034239
0.204125,0.11475517110905
0.206125,0.114886234867086
0.208125,0.114991816270473
0.210125,0.115167203773781
0.212125,0.1153152310337
0.214125,0.115518107813076
0.216125,0.115648351234107
0.218125,0.115882249787435
0.220125,0.116083207298238
0.222125,0.11610350561146
0.224125,0.116226845868755
0.226125,0.116317337335129
0.228125,0.116601861083067
0.230125,0.116803668499277
0.232125,0.11689187970248
0.234125,0.117003003751471
0.236125,0.11736363951979
0.238125,0.117502617027085
0.240125,0.117524471292515
0.242125,0.11759924603003
0.244125,0.117804482535981
0.246125,0.118141643015969
0.248125,0.118189629320175
0.250125,0.118311137357334
0.252125,0.118536152593349
0.254125,0.11874720646982
0.256125,0.118806280867283
0.258125,0.118946653213325
0.260125,0.119115850236773
0.262125,0.11934563494107
0.264125,0.11945180017516
0.266125,0.119531317039416
0.268125,0.119622418053187
0.270125,0.119958989832921
0.272125,0.120066056143448
0.274125,0.120187305295729
0.276125,0.120204648941985
0.278125,0.12033122537649
0.280125,0.120605292436729
0.282125,0.12073497549655
0.284125,0.120836439719542
0.286125,0.12097023539757
0.288125,0.121049279102542
0.290125,0.121468292866852
0.292125,0.121476886035749
0.294125,0.121610867096481
0.296125,0.121608470850482
0.298125,0.121860382444022
0.300125,0.122072855166938
0.302125,0.122211195520221
0.304125,0.122307506001996
0.306125,0.122489203894131
0.308125,0.122671643223198
0.310125,0.122939232064794
0.312125,0.122992570688881
0.314125,0.123069994118872
0.316125,0.123099341395107
0.318125,0.123501261032861
0.320125,0.123545658240631
0.322125,0.123733528884064
0.324125,0.123726033695055
0.326125,0.12394763384824
0.328125,0.124235540754293
0.330125,0.124304621580564
0.332125,0.124451186690216
0.334125,0.124496451326473
0.336125,0.124536632069882
0.338125,0.124687397166725
0.340125,0.125013514505579
0.342125,0.125120104868746
0.344125,0.125194518082052
0.346125,0.125250321417594
0.348125,0.125420766424401
0.350125,0.125650028371805
0.352125,0.125801267983412
0.354125,0.125939930712401
0.356125,0.125953197826229
0.358125,0.126052318643729
0.360125,0.126184955885337
0.362125,0.126395412305271
0.364125,0.126592295616479
0.366125,0.126696067754633
0.368125,0.126733831894294
0.370125,0.126881401063775
0.372125,0.126898480195412
0.374125,0.127293496912298
0.376125,0.127383096618479
0.378125,0.127527737021808
0.380125,0.12760449731181
0.382125,0.127638859765534
0.384125,0.12791035494805
0.386125,0.128024869323456
0.388125,0.128189176543025
0.390125,0.128237914433765
0.392125,0.128368449400167
0.394125,0.128426215585298
0.396125,0.128577842073101
0.398125,0.128903432902251
